time,pos,vel,tau
1.000000000000000021e-02,1.028218897507115733e-03,5.632913450205741419e-03,3.985179680453114254e-04
2.000000000000000042e-02,1.134158736746114114e-03,1.552675912660113344e-02,6.610222029053312506e-04
2.999999999999999889e-02,1.354556749262883107e-03,2.850242684590610295e-02,8.599629312989525917e-04
4.000000000000000083e-02,1.715106593536111414e-03,4.353194846953677838e-02,1.005796860755121683e-03
5.000000000000000278e-02,2.233818636755328414e-03,6.010731161841405268e-02,1.130674718218119008e-03
6.000000000000000472e-02,2.938111346717382430e-03,8.061339898027482243e-02,1.409741692126296759e-03
7.000000000000000666e-02,3.865718009986749467e-03,1.047296114606858508e-01,1.683131410478047856e-03
8.000000000000000167e-02,5.021517419811177656e-03,1.262175894222592742e-01,1.596008023403244075e-03
8.999999999999999667e-02,6.408619495047529827e-03,1.509487575184081942e-01,1.874529210487221832e-03
9.999999999999999167e-02,8.057324342207046811e-03,1.784922867885731235e-01,2.142939073182260120e-03
1.099999999999999867e-01,9.993277171470475034e-03,2.083488644207207030e-01,2.398591501050958367e-03
1.199999999999999817e-01,1.223681796717120303e-02,2.399576944676569956e-01,2.638940511202238735e-03
1.299999999999999767e-01,1.480240607168642475e-02,2.727044665946854463e-01,2.861565025265229521e-03
1.399999999999999856e-01,1.769812888521728883e-02,3.059301958627185236e-01,3.064192850440113167e-03
1.499999999999999944e-01,2.092530285111076846e-02,3.389408241308917713e-01,3.244723607224458788e-03
1.600000000000000033e-01,2.447817374346726235e-02,3.710174620841033555e-01,3.401250338445901272e-03
1.700000000000000122e-01,2.834372201475409900e-02,4.014271412654370486e-01,3.532079586400841548e-03
1.800000000000000211e-01,3.250157760631931791e-02,4.294339359836287784e-01,3.635749658982426972e-03
1.900000000000000300e-01,3.692404718793092233e-02,4.543103081127483622e-01,3.711046882898095742e-03
2.000000000000000389e-01,4.157625529195048408e-02,4.753485219344989465e-01,3.757019609080737566e-03
2.100000000000000477e-01,4.641639926158742935e-02,4.918719729388145723e-01,3.772989790646805869e-03
2.200000000000000566e-01,5.139611636396741734e-02,5.032462732477785972e-01,3.758561960600684607e-03
2.300000000000000655e-01,5.646095985070879314e-02,5.088899377299717086e-01,3.713629475843479178e-03
2.400000000000000744e-01,6.155097920703875292e-02,5.082845187511946250e-01,3.638377918731578158e-03
2.500000000000000555e-01,6.660139834261284697e-02,5.009840443776215624e-01,3.533285603670040763e-03
2.600000000000000644e-01,7.154338407140882483e-02,4.866236243651652638e-01,3.399121178503398000e-03
2.700000000000000733e-01,7.630489592530614873e-02,4.649270993142939901e-01,3.236938298329233247e-03
2.800000000000000822e-01,8.081160717315571951e-02,4.357136232507033413e-01,3.048067494990782961e-03
2.900000000000000910e-01,8.498788589229401558e-02,3.989030845290120197e-01,2.834105291377289008e-03
3.000000000000000999e-01,8.875782407326049395e-02,3.545202869662542611e-01,2.596900721082988969e-03
3.100000000000001088e-01,9.197354833951605635e-02,2.881750539950844181e-01,1.462839254838488919e-03
3.200000000000001177e-01,9.441746532217384913e-02,2.003084084344904370e-01,3.075945849220676053e-04
3.300000000000001266e-01,9.590235794404532166e-02,9.654387531619335050e-02,-5.687515300335074710e-04
3.400000000000001354e-01,9.628301731219110482e-02,-2.034408340650373237e-02,-1.345033835727701922e-03
3.500000000000001443e-01,9.543687755933487338e-02,-1.486038231206822657e-01,-2.089493968931061246e-03
3.600000000000001532e-01,9.325819937956519867e-02,-2.866241850707702543e-01,-2.816574760093983922e-03
3.700000000000001621e-01,8.965787626381062358e-02,-4.326924989376686459e-01,-3.525267430440849094e-03
3.800000000000001710e-01,8.456464143509964670e-02,-5.849564529876913888e-01,-4.211251785743962139e-03
3.900000000000001799e-01,7.792640179910427511e-02,-7.414367998045935382e-01,-4.869863425278766512e-03
4.000000000000001887e-01,6.971140146660298464e-02,-9.000487157811325467e-01,-5.496539510195289600e-03
4.100000000000001976e-01,5.990917446361402471e-02,-1.058622587731521403e+00,-6.086717936356765730e-03
4.200000000000002065e-01,4.853129762555293686e-02,-1.214923174205976064e+00,-6.635679036035894984e-03
4.300000000000002154e-01,3.561195781703800634e-02,-1.366667561368897665e+00,-7.138418310316989659e-03
4.400000000000002243e-01,2.120834354316948264e-02,-1.511542305799963515e+00,-7.589549948996218535e-03
4.500000000000002331e-01,5.400868266563337017e-03,-1.647219920017103600e+00,-7.983229287200981419e-03
4.600000000000002420e-01,-1.170676792974447572e-02,-1.771374678490714949e+00,-8.313086480721718421e-03
4.700000000000002509e-01,-2.998767114089120542e-02,-1.881697655551974213e+00,-8.572170669861843562e-03
4.800000000000002598e-01,-4.929199325352172367e-02,-1.975910993521965864e+00,-8.752913055089144370e-03
4.900000000000002687e-01,-6.944731230640836805e-02,-2.051781719749534272e+00,-8.847130996744402218e-03
5.000000000000002220e-01,-9.025915414177868024e-02,-2.107136117198267211e+00,-8.846116751774249845e-03
5.100000000000002309e-01,-1.115116720471339418e-01,-2.139876875379176813e+00,-8.740886364832218050e-03
5.200000000000002398e-01,-1.329685327668187200e-01,-2.148007128654523701e+00,-8.522704020541269077e-03
5.300000000000002487e-01,-1.543741100776852837e-01,-2.129667832693756591e+00,-8.184026256512351785e-03
5.400000000000002576e-01,-1.754551602797942700e-01,-2.083196652339691646e+00,-7.719975429206101664e-03
5.500000000000002665e-01,-1.959232277158885482e-01,-2.007214936596826149e+00,-7.130254722874839780e-03
5.600000000000002753e-01,-2.154780497990145816e-01,-1.900740490341636058e+00,-6.420979641634642389e-03
5.700000000000002842e-01,-2.338121218424351333e-01,-1.763306636187695675e+00,-5.605390840056621513e-03
5.800000000000002931e-01,-2.506163060466090053e-01,-1.595051946024411915e+00,-4.702460969286917543e-03
5.900000000000003020e-01,-2.655860318854587621e-01,-1.396748881766691097e+00,-3.733587211357148380e-03
6.000000000000003109e-01,-2.784274621550485995e-01,-1.169768490857937548e+00,-2.719058758387427402e-03
6.100000000000003197e-01,-2.888631138343631943e-01,-9.160069202591638593e-01,-1.675987083429569553e-03
6.200000000000003286e-01,-2.966367002060889546e-01,-6.378033793400321727e-01,-6.179271147107090250e-04
6.300000000000003375e-01,-3.015171916094807614e-01,-3.378660704771571099e-01,4.445822025633454442e-04
6.400000000000003464e-01,-3.033021981595397931e-01,-1.921074840853709276e-02,1.503245610698483378e-03
6.500000000000003553e-01,-3.018103069669787475e-01,3.169829518180083960e-01,2.677569161545993465e-03
6.600000000000003642e-01,-2.968829631374624300e-01,6.673275358516190803e-01,3.843805077549621290e-03
6.700000000000003730e-01,-2.883970006625579674e-01,1.028136828415406212e+00,4.991127326156427103e-03
6.800000000000003819e-01,-2.762675022533540581e-01,1.395451774486105911e+00,6.108710368310217229e-03
6.900000000000003908e-01,-2.604503814708129528e-01,1.765070350156462631e+00,7.185799044109836102e-03
7.000000000000003997e-01,-2.409446401263549975e-01,2.132582773421529687e+00,8.211786583907271925e-03
7.100000000000004086e-01,-2.177942419069676672e-01,2.493413202976743293e+00,9.176303537557424159e-03
7.200000000000004174e-01,-1.910895320475294867e-01,2.842868934979765783e+00,1.006931961885722260e-02
7.300000000000004263e-01,-1.609681244809988698e-01,3.176197737831951251e+00,1.088125926635797464e-02
7.400000000000004352e-01,-1.276151741622207347e-01,3.488653406776302646e+00,1.160313018393315486e-02
7.500000000000004441e-01,-9.126295495002371971e-02,3.775568900792118932e+00,1.222666235187981967e-02
7.600000000000004530e-01,-5.218967390575950799e-02,4.032435597848563091e+00,1.274445314854078491e-02
7.700000000000004619e-01,-1.071747181310102326e-02,4.254986350937441486e+00,1.315011249232468996e-02
7.800000000000004707e-01,3.279041307552654078e-02,4.439279246757469544e+00,1.343840052860151464e-02
7.900000000000004796e-01,7.793330688765076619e-02,4.581778371442598363e+00,1.360534956726325295e-02
8.000000000000004885e-01,1.242775376171650625e-01,4.679427577513797232e+00,1.364836190999805209e-02
8.100000000000004974e-01,1.713615582085822320e-01,4.729713303747931086e+00,1.356627600339339879e-02
8.200000000000005063e-01,2.187016277283431176e-01,4.730712964551154087e+00,1.335939502289620537e-02
8.300000000000005151e-01,2.657978923048001096e-01,4.681126284395314308e+00,1.302947442175331726e-02
8.400000000000005240e-01,3.121406870073510365e-01,4.580288136020588041e+00,1.257966794184442287e-02
8.500000000000005329e-01,3.572168722945614494e-01,4.428162828704083509e+00,1.201443476558908610e-02
8.600000000000005418e-01,4.005160253846310470e-01,4.225321232074817246e+00,1.133941353312006850e-02
8.700000000000005507e-01,4.415363275851844072e-01,3.972903449133572185e+00,1.056127151172776661e-02
8.800000000000005596e-01,4.797900213916250767e-01,3.672570822193247153e+00,9.687539004247120236e-03
8.900000000000005684e-01,5.148083528528636377e-01,3.326451757207529614e+00,8.726439942012409814e-03
9.000000000000005773e-01,5.461459612830810162e-01,2.937086125484372090e+00,7.686729471260042926e-03
9.100000000000005862e-01,5.734672597801656613e-01,2.523850067718871770e+00,7.570851231528265279e-03
9.200000000000005951e-01,5.964743602958393343e-01,2.074934584424215078e+00,6.504001830341010933e-03
9.300000000000006040e-01,6.148264397185706498e-01,1.593550727917648180e+00,5.378789746599684125e-03
9.400000000000006128e-01,6.282160038364071886e-01,1.083150304846144829e+00,4.204196209316613843e-03
9.500000000000006217e-01,6.363712392316692723e-01,5.474168242336117096e-01,2.989332472865634596e-03
9.600000000000006306e-01,6.390583352378448323e-01,-9.731662870488655415e-03,1.743439281822021071e-03
9.700000000000006395e-01,6.360838884663009285e-01,-5.841292943869030863e-01,4.759125135192326635e-04
9.800000000000006484e-01,6.272974819497795229e-01,-1.171341313706568021e+00,-8.036516449485073136e-04
9.900000000000006573e-01,6.125944993155606477e-01,-1.766638862424826373e+00,-2.085400528820492878e-03
1.000000000000000666e+00,5.919191925877568261e-01,-2.364974292328579253e+00,-3.359167917532325867e-03
1.010000000000000675e+00,5.652679717554273120e-01,-2.960962406559895399e+00,-4.614427224964866119e-03
1.020000000000000684e+00,5.326928273882869380e-01,-3.548873537011073331e+00,-5.840266678383758230e-03
1.030000000000000693e+00,4.943047375601835602e-01,-4.122644483609664512e+00,-7.025398028940841449e-03
1.040000000000000702e+00,4.502768515611323963e-01,-4.675912955509203606e+00,-8.158209244272596541e-03
1.050000000000000711e+00,4.008471910176968911e-01,-5.202080140720621415e+00,-9.226869431830962004e-03
1.060000000000000719e+00,3.463205708733222421e-01,-5.694404299198898123e+00,-1.021949079182799501e-02
1.070000000000000728e+00,2.870694255454898647e-01,-6.146125808462803874e+00,-1.112434768980899435e-02
1.080000000000000737e+00,2.235332364300783581e-01,-6.550620989819032403e+00,-1.193014715765773441e-02
1.090000000000000746e+00,1.562163010095296289e-01,-6.901578552562246394e+00,-1.262633867632222649e-02
1.100000000000000755e+00,8.568366322645505628e-02,-7.193188996584945372e+00,-1.320344384490453570e-02
1.110000000000000764e+00,1.255513819633462258e-02,-7.420334097368274762e+00,-1.365336648352684541e-02
1.120000000000000773e+00,-6.250248077903816646e-02,-7.578758606937472386e+00,-1.396946810652480511e-02
1.130000000000000782e+00,-1.387847582186633455e-01,-7.665204986916819507e+00,-1.414631759232566101e-02
1.140000000000000790e+00,-2.155608760106372812e-01,-7.677661381759786963e+00,-1.418920670868942940e-02
1.150000000000000799e+00,-2.920857496933614850e-01,-7.615284299477607100e+00,-1.409786738927570025e-02
1.160000000000000808e+00,-3.676117207876453685e-01,-7.478391022197467208e+00,-1.387402003288745050e-02
1.170000000000000817e+00,-4.410902911297110984e-01,-7.206590816933334587e+00,-9.795010103302805374e-03
1.180000000000000826e+00,-5.115016084221472026e-01,-6.865829756302199272e+00,-9.366821310871379855e-03
1.190000000000000835e+00,-5.781750096308986286e-01,-6.459986752847104441e+00,-8.833675988537853171e-03
1.200000000000000844e+00,-6.404830560733211220e-01,-5.993793296085245359e+00,-8.220609357797326738e-03
1.210000000000000853e+00,-6.978475053884007906e-01,-5.472325051084388825e+00,-7.534238274568307719e-03
1.220000000000000862e+00,-7.497418253961464218e-01,-4.900820676239900919e+00,-6.781144466756618833e-03
1.230000000000000870e+00,-7.956920803328324521e-01,-4.284539014463362605e+00,-5.968294688044814555e-03
1.240000000000000879e+00,-8.352765607221864785e-01,-3.628651529494120620e+00,-5.102835490946742471e-03
1.250000000000000888e+00,-8.681114882809813915e-01,-2.935569443910322818e+00,-4.034953261996639638e-03
1.260000000000000897e+00,-8.938765428678894231e-01,-2.215561698016902614e+00,-3.254268492740066028e-03
1.270000000000000906e+00,-9.122978400837649104e-01,-1.467664338937377799e+00,-2.104389992639107976e-03
1.280000000000000915e+00,-9.231186059218330353e-01,-6.962709655673727793e-01,-9.192182515517392577e-04
1.290000000000000924e+00,-9.261257810302387927e-01,9.425397489309095267e-02,2.944899482546450451e-04
1.300000000000000933e+00,-9.211502209792864493e-01,8.994736040275277400e-01,1.529951990696930839e-03
1.310000000000000941e+00,-9.080680099791476056e-01,1.714758915237830417e+00,2.780185501010242095e-03
1.320000000000000950e+00,-8.868030266626835134e-01,2.535159634037759346e+00,4.037817407717648674e-03
1.330000000000000959e+00,-8.573308075086069069e-01,3.355275586532565857e+00,5.294890406862770918e-03
1.340000000000000968e+00,-8.196836470943956732e-01,4.169139906740028323e+00,6.542683081168450959e-03
1.350000000000000977e+00,-7.739567541670225870e-01,4.970126762398344944e+00,7.771561791093187233e-03
1.360000000000000986e+00,-7.203151501277264002e-01,5.750897307953372284e+00,8.970884007657366210e-03
1.370000000000000995e+00,-6.590008572587862101e-01,6.503397837879169252e+00,1.012897342708869372e-02
1.380000000000001004e+00,-5.903397882597581914e-01,7.218923055693651669e+00,1.123318623202278904e-02
1.390000000000001013e+00,-5.147476325545110587e-01,7.888254420454340554e+00,1.227008440221400397e-02
1.400000000000001021e+00,-4.327339597003657667e-01,8.501878251917268869e+00,1.322572531038799029e-02
1.410000000000001030e+00,-3.449037501486840185e-01,9.050280583177839233e+00,1.408606664691044660e-02
1.420000000000001039e+00,-2.519556408775164291e-01,9.524306110913355994e+00,1.483747238747070742e-02
1.430000000000001048e+00,-1.546763523490543579e-01,9.915558148324759458e+00,1.546729038017749698e-02
1.440000000000001057e+00,-5.393104346161449458e-02,1.021680700217629756e+01,1.596445748712184073e-02
1.450000000000001066e+00,4.935029744858109024e-02,1.042236778455957769e+01,1.632007706336536385e-02
1.460000000000001075e+00,1.541899158385554025e-01,1.052840727873706683e+01,1.652790893144826662e-02
1.470000000000001084e+00,2.595819137096559981e-01,1.053314427438877487e+01,1.658471611244900779e-02
1.480000000000001092e+00,3.645132313118875089e-01,1.043691865364381854e+01,1.649042592089162637e-02
1.490000000000001101e+00,4.679846144701205191e-01,1.024211987144886926e+01,1.624808399022156444e-02
1.500000000000001110e+00,5.690301864452741443e-01,9.952982591386783540e+00,1.586360478588834041e-02
1.510000000000001119e+00,6.667344019642380548e-01,9.575272900491711425e+00,1.534534651819831862e-02
1.520000000000001128e+00,7.602454569112379046e-01,9.115899921649809556e+00,1.470355760096122427e-02
1.530000000000001137e+00,8.487846078837399943e-01,8.582493079571792194e+00,1.394975280213173532e-02
1.540000000000001146e+00,9.316512594057390073e-01,7.982984518922386918e+00,1.309607895561407456e-02
1.550000000000001155e+00,1.008224045617474030e+00,7.325230302357919498e+00,1.215472357860204050e-02
1.560000000000001164e+00,1.077958425760247474e+00,6.616694945767422453e+00,1.113740748209427790e-02
1.570000000000001172e+00,1.140381507511029735e+00,5.864213709082382486e+00,1.005498759789376362e-02
1.580000000000001181e+00,1.195084908072367114e+00,5.073837675751077469e+00,8.917181670885017397e-03
1.590000000000001190e+00,1.241716474045365004e+00,4.250759227801951035e+00,7.732414289652719298e-03
1.600000000000001199e+00,1.279971630247270786e+00,3.399310575729926232e+00,6.507775059870658275e-03
1.610000000000001208e+00,1.309585039674647122e+00,2.523025474302940108e+00,5.249074751770093500e-03
1.620000000000001217e+00,1.330323153957307269e+00,1.624753702253920684e+00,3.960983494485107760e-03
1.630000000000001226e+00,1.341978132553082625e+00,7.068186721094714686e-01,2.647235690627897271e-03
1.640000000000001235e+00,1.344363519629848014e+00,-2.287900050736039193e-01,1.310888304385885057e-03
1.650000000000001243e+00,1.337311993602863236e+00,-1.180195664670955935e+00,-4.537840158391802728e-05
1.660000000000001252e+00,1.320934317631632382e+00,-2.093684135790402578e+00,1.695081694300198255e-03
1.670000000000001261e+00,1.295399166565294857e+00,-3.011243241932875403e+00,7.768639594108742380e-04
1.680000000000001270e+00,1.260678847577359818e+00,-3.930162069250568102e+00,-1.582043817088213216e-04
1.690000000000001279e+00,1.216776604188521516e+00,-4.846929118432765193e+00,-1.107492311762471810e-03
1.700000000000001288e+00,1.163735697925967649e+00,-5.757021601812001066e+00,-2.067657843152354014e-03
1.710000000000001297e+00,1.099980236203555339e+00,-6.988275536968528989e+00,-2.312862669687622968e-02
1.720000000000001306e+00,1.024214149260434858e+00,-8.157613610694060213e+00,-2.176828040803004474e-02
1.730000000000001315e+00,9.371138173160562523e-01,-9.253317285483522170e+00,-2.030700397113859024e-02
1.740000000000001323e+00,8.394813688304367805e-01,-1.026199295411570134e+01,-1.873750028403516066e-02
1.750000000000001332e+00,7.322598365230994499e-01,-1.116892905494205834e+01,-1.705358615231813979e-02
1.760000000000001341e+00,6.165435143570219267e-01,-1.195869811996399079e+01,-1.525109145922091958e-02
1.770000000000001350e+00,4.935811331221858778e-01,-1.261598467431313253e+01,-1.332881984961695014e-02
1.780000000000001359e+00,3.647698611367253818e-01,-1.312657943871395183e+01,-1.128938563399550267e-02
1.790000000000001368e+00,2.316389550206068848e-01,-1.347843636786486599e+01,-9.139587484451264926e-03
1.800000000000001377e+00,9.582308408878317807e-02,-1.366265881538144633e+01,-6.890224786169995772e-03
1.810000000000001386e+00,-4.097326724242814078e-02,-1.367427649235237119e+01,-4.555576935833850934e-03
1.820000000000001394e+00,-1.770176239884007352e-01,-1.351269813429330569e+01,-2.152801973386481854e-03
1.830000000000001403e+00,-3.105939417113587897e-01,-1.318177175084649910e+01,2.986600977267115601e-04
1.840000000000001412e+00,-4.400456123907574568e-01,-1.268944595276397891e+01,2.777743870841188709e-03
1.850000000000001421e+00,-5.638132966076148112e-01,-1.204708840598694586e+01,5.262583150016129224e-03
1.860000000000001430e+00,-6.804646460777286077e-01,-1.126856633370776350e+01,7.731563933530673227e-03
1.870000000000001439e+00,-7.887141785230247226e-01,-1.036921904166159969e+01,1.016456474598432733e-02
1.880000000000001448e+00,-8.874328829000139862e-01,-9.364851311495259623e+00,1.254423127978308676e-02
1.890000000000001457e+00,-9.756483252783096916e-01,-8.270854328118268484e+00,1.485704748103107431e-02
1.900000000000001465e+00,-1.052536929542215116e+00,-7.101527191213364176e+00,1.709392819809740435e-02
1.910000000000001474e+00,-1.117410659972084552e+00,-5.869637130505049427e+00,1.925007051428676008e-02
1.920000000000001483e+00,-1.169700561936516614e+00,-4.586227752323135398e+00,2.132385467101244325e-02
1.930000000000001492e+00,-1.208939603665451390e+00,-3.260665260736022475e+00,2.331468011386077233e-02
1.940000000000001501e+00,-1.234747099181976226e+00,-1.900901814381378951e+00,2.521976996924165174e-02
1.950000000000001510e+00,-1.246816749031502081e+00,-5.139293062701011383e-01,2.703019650292834766e-02
1.960000000000001519e+00,-1.244910036471885029e+00,8.936090137978547343e-01,2.872667453646687158e-02
1.970000000000001528e+00,-1.228879283410793111e+00,2.310109590711099337e+00,2.999999999999999889e-02
