time,pos,vel,tau
1.000000000000000021e-02,1.132553966619753542e-03,2.645975170701908921e-02,1.654351530793983071e-03
2.000000000000000042e-02,1.551589652955422290e-03,5.724473901909125917e-02,1.941346232804162276e-03
2.999999999999999889e-02,2.287054744292472443e-03,8.969209292349461515e-02,2.087640848271420102e-03
4.000000000000000083e-02,3.352770604562605849e-03,1.232397196764619396e-01,2.219821933106815633e-03
5.000000000000000278e-02,4.758139039892004402e-03,1.575662565175231233e-01,2.352828043445922591e-03
6.000000000000000472e-02,6.509392901243755102e-03,1.923597831187219276e-01,2.487558248207006120e-03
7.000000000000000666e-02,8.609546338272683341e-03,2.272890280184083345e-01,2.622995097525481108e-03
8.000000000000000167e-02,1.105819140746741244e-02,2.620014284097165747e-01,2.757800743388209418e-03
8.999999999999999667e-02,1.385129424087174974e-02,2.961249783882372033e-01,2.890531863906670162e-03
9.999999999999999167e-02,1.698101379131557176e-02,3.292708914203180126e-01,3.019677839365136982e-03
1.099999999999999867e-01,2.043554938506098387e-02,3.610366941136870511e-01,3.143677742389604755e-03
1.199999999999999817e-01,2.419902111590575833e-02,3.910096948191036925e-01,3.260935953420109317e-03
1.299999999999999767e-01,2.825138671748340241e-02,4.187708040933891263e-01,3.369838649842467598e-03
1.399999999999999856e-01,3.256839830267174718e-02,4.438986804714198375e-01,3.468771182589554854e-03
1.499999999999999944e-01,3.712160205161516013e-02,4.659741666854161912e-01,3.556136050764049754e-03
1.600000000000000033e-01,4.187838353732977609e-02,4.845849727777282179e-01,3.630371133267511902e-03
1.700000000000000122e-01,4.680206090121537960e-02,4.993305544470352797e-01,3.689967834249800044e-03
1.800000000000000211e-01,5.185202753880172738e-02,5.098271280251781556e-01,3.733488823585810312e-03
1.900000000000000300e-01,5.698394534287901103e-02,5.157127582045367697e-01,3.759585101276153880e-03
2.000000000000000389e-01,6.214998889559371353e-02,5.166524514451631411e-01,3.767012182792099737e-03
2.100000000000000477e-01,6.729914032555239789e-02,5.123431871896717560e-01,3.754645286440955188e-03
2.200000000000000566e-01,7.237753387516333847e-02,5.025188207533120011e-01,3.721493497800879707e-03
2.300000000000000655e-01,7.732256540519018284e-02,4.857005768668180012e-01,3.591085419456204950e-03
2.400000000000000744e-01,8.206281710932648854e-02,4.616045879362761228e-01,3.430771927975812506e-03
2.500000000000000555e-01,8.652450282338829124e-02,4.300413102832297829e-01,3.241859429790871876e-03
2.600000000000000644e-01,9.063244111041884876e-02,3.909213282021522518e-01,3.025938332785054873e-03
2.700000000000000733e-01,9.431108026347197193e-02,3.442599283242220864e-01,2.784869751090505042e-03
2.800000000000000822e-01,9.748556258195482938e-02,2.901803771772745733e-01,2.520769604066756646e-03
2.900000000000000910e-01,1.000828146900061000e-01,2.289158514498324803e-01,2.235990288053088092e-03
3.000000000000000999e-01,1.020326502413972658e-01,1.608099864699105708e-01,1.933100118137522647e-03
3.100000000000001088e-01,1.032688710864758941e-01,8.631602337010589598e-02,1.614860748969956881e-03
3.200000000000001177e-01,1.037303528508146389e-01,5.994549060408402297e-03,1.284202788844163948e-03
3.300000000000001266e-01,1.033621008788520729e-01,-7.949016460510321957e-02,9.441998207682157120e-04
3.400000000000001354e-01,1.021162626155979331e-01,-1.693752050630614181e-01,5.980410394814475190e-04
3.500000000000001443e-01,9.995308272456768228e-02,-2.628054191521023708e-01,2.490027062610742671e-04
3.600000000000001532e-01,9.684178756407320343e-02,-3.588411318244879578e-01,-9.958138391023293014e-05
3.700000000000001621e-01,9.276138606637028550e-02,-4.564671361437201980e-01,-4.443502333929513813e-04
3.800000000000001710e-01,8.770137459138248326e-02,-5.546028962199932577e-01,-7.819465826337499998e-04
3.900000000000001799e-01,8.166233397218372603e-02,-6.521138920361175817e-01,-1.109048267015299476e-03
4.000000000000001887e-01,7.465640775260511119e-02,-7.478240202207226961e-01,-1.422399784107666355e-03
4.100000000000001976e-01,6.670765156190637535e-02,-8.405289474384893822e-01,-1.718843846186244185e-03
4.200000000000002065e-01,5.789677161987210469e-02,-9.201220432376144842e-01,-1.459403355586951553e-03
4.300000000000002154e-01,4.829881909107062304e-02,-9.978164119699285406e-01,-1.917922055293812570e-03
4.400000000000002243e-01,3.794951245135260581e-02,-1.070275298714987500e+00,-2.220467294050187685e-03
4.500000000000002331e-01,2.690892526260493106e-02,-1.135966485261394432e+00,-2.471437409998799174e-03
4.600000000000002420e-01,1.525063553145485779e-02,-1.193723184956090533e+00,-2.688246737260914683e-03
4.700000000000002509e-01,3.059578996823179853e-03,-1.242442509489570579e+00,-2.869555514395242743e-03
4.800000000000002598e-01,-9.568475995623460309e-03,-1.281062631350238235e+00,-3.011992152988138011e-03
4.900000000000002687e-01,-2.252740121244927590e-02,-1.308575100586177875e+00,-3.112291653011271461e-03
5.000000000000002220e-01,-3.570132162849189855e-02,-1.324040567798382861e+00,-3.167544245541041928e-03
5.100000000000002309e-01,-4.896538453682828390e-02,-1.326604230718455346e+00,-3.175235694621989478e-03
5.200000000000002398e-01,-6.218667844014661578e-02,-1.315510314351390209e+00,-3.133257571002201220e-03
5.300000000000002487e-01,-7.522529031530128529e-02,-1.290115240942512287e+00,-3.039906688868530566e-03
5.400000000000002576e-01,-8.793548698599390478e-02,-1.249899263250906278e+00,-2.893878712753079983e-03
5.500000000000002665e-01,-1.001670046220834165e-01,-1.194476445036550594e+00,-2.694260209408791493e-03
5.600000000000002753e-01,-1.117664297997143924e-01,-1.123602988137198722e+00,-2.440523571101619986e-03
5.700000000000002842e-01,-1.225786561237220684e-01,-1.037184019767370291e+00,-2.132529216677564975e-03
5.800000000000002931e-01,-1.324484020829942432e-01,-9.352790592013919824e-01,-1.770539222911284710e-03
5.900000000000003020e-01,-1.412217784545800603e-01,-8.181064720839661408e-01,-1.355246034183850250e-03
6.000000000000003109e-01,-1.487478969868820944e-01,-6.860472849429236630e-01,-8.878190851572294448e-04
6.100000000000003197e-01,-1.548805159811787735e-01,-5.396487626900434709e-01,-3.699709421467061474e-04
6.200000000000003286e-01,-1.594797223581871370e-01,-3.796281372584244806e-01,1.959572182639837581e-04
6.300000000000003375e-01,-1.624136533334450128e-01,-2.068768041850635730e-01,8.068934656769458308e-04
6.400000000000003464e-01,-1.635602633047069654e-01,-2.246516413346408281e-02,1.458922262139034955e-03
6.500000000000003553e-01,-1.628091422450993753e-01,1.723519309279901712e-01,2.147170864589478465e-03
6.600000000000003642e-01,-1.600633900131392395e-01,3.761294635437952838e-01,2.865709359889605234e-03
6.700000000000003730e-01,-1.552415458031585760e-01,5.872269685690719720e-01,3.607482802196914761e-03
6.800000000000003819e-01,-1.482795629608993082e-01,8.038047803263073110e-01,4.364296548273171802e-03
6.900000000000003908e-01,-1.391328065311910334e-01,1.023823279294845179e+00,5.126875562121474723e-03
7.000000000000003997e-01,-1.277780348497529195e-01,1.245046873568157242e+00,5.885013726000354155e-03
7.100000000000004086e-01,-1.142153087954962121e-01,1.465054512188335600e+00,6.627819240758872112e-03
7.200000000000004174e-01,-9.846975543145880527e-02,1.681258303482837668e+00,7.344047626577612092e-03
7.300000000000004263e-01,-8.059309972450297288e-02,1.890931265675237727e+00,8.022497186072886227e-03
7.400000000000004352e-01,-6.066487186657815167e-02,2.091244409950784533e+00,8.652427333314772345e-03
7.500000000000004441e-01,-3.879320061434009259e-02,2.279312373144909198e+00,9.223952649195754985e-03
7.600000000000004530e-01,-1.511511566694913322e-02,2.452245861391083803e+00,9.728368037138800106e-03
7.700000000000004619e-01,1.020369677413802967e-02,2.607208421186716585e+00,1.015837272009464595e-02
7.800000000000004707e-01,3.696971419741740261e-02,2.741474643236875508e+00,1.050817925567846221e-02
7.900000000000004796e-01,6.496297341853932150e-02,2.852486855205768279e+00,1.077351256939697473e-02
8.000000000000004885e-01,9.393901313170209544e-02,2.937907615135291639e+00,1.095151824545057516e-02
8.100000000000004974e-01,1.236313101858190350e-01,2.995665776649815815e+00,1.104060659176464392e-02
8.200000000000005063e-01,1.537541368433213984e-01,3.023994459614625541e+00,1.104025974334512696e-02
8.300000000000005151e-01,1.840057525070747657e-01,3.021459852626938503e+00,1.095082544467038642e-02
8.400000000000005240e-01,2.140718355145155571e-01,2.986980355773826812e+00,1.077331566505271808e-02
8.500000000000005329e-01,2.436290584083861677e-01,2.919836125414773331e+00,1.050922278894375270e-02
8.600000000000005418e-01,2.723487132773680930e-01,2.819669599042190278e+00,1.016036186169876239e-02
8.700000000000005507e-01,2.999003019098102629e-01,2.686478049448438377e+00,9.728744597212162643e-03
8.800000000000005596e-01,3.259425674270803874e-01,2.518114182560610370e+00,9.066632244099162574e-03
8.900000000000005684e-01,3.501265753034841222e-01,2.315185430376112130e+00,8.320492831740872869e-03
9.000000000000005773e-01,3.721114743799631697e-01,2.078696987448614308e+00,7.497005799547163882e-03
9.100000000000005862e-01,3.915684028862291832e-01,1.810037280078734323e+00,6.603482545262545113e-03
9.200000000000005951e-01,4.081842379343880722e-01,1.510961430401012606e+00,5.647777942159263459e-03
9.300000000000006040e-01,4.216651758769318081e-01,1.183574170024865424e+00,4.638208481585766492e-03
9.400000000000006128e-01,4.317401444611609906e-01,8.303134359329157332e-01,3.583479817300115697e-03
9.500000000000006217e-01,4.381640583584821558e-01,4.539355287056426880e-01,2.492625353102231964e-03
9.600000000000006306e-01,4.407209362139173914e-01,5.750225508871414926e-02,1.374956228284317759e-03
9.700000000000006395e-01,4.392268989555384029e-01,-3.556300534657603762e-01,2.400217112584618340e-04
9.800000000000006484e-01,4.335330651937407964e-01,-7.818203184676240092e-01,-9.024222928652845957e-04
9.900000000000006573e-01,4.235283500065059603e-01,-1.217152514408650799e+00,-2.042440085405532440e-03
1.000000000000000666e+00,4.091421585800968930e-01,-1.657447214605871633e+00,-3.169942778269145989e-03
1.010000000000000675e+00,3.903469468681316501e-01,-2.098276997529202159e+00,-4.274719704440677406e-03
1.020000000000000684e+00,3.671605989627037547e-01,-2.534988062336554826e+00,-5.346479924150646101e-03
1.030000000000000693e+00,3.396966830389827052e-01,-2.953121320759841684e+00,-5.795547505679402717e-03
1.040000000000000702e+00,3.081170046758971992e-01,-3.357474512322244031e+00,-6.772842308390875608e-03
1.050000000000000711e+00,2.725591674367530137e-01,-3.748093405193940075e+00,-7.991776535842164825e-03
1.060000000000000719e+00,2.332068294753793236e-01,-4.115741758314996446e+00,-8.889945375865805285e-03
1.070000000000000728e+00,1.903216409342904092e-01,-4.454071128415085568e+00,-9.628414189522408254e-03
1.080000000000000737e+00,1.442254077923944555e-01,-4.757413738810178927e+00,-1.023074446191979230e-02
1.090000000000000746e+00,9.529495764591400242e-02,-5.020448601048900450e+00,-1.069496560824102077e-02
1.100000000000000755e+00,4.395818944746871654e-02,-5.238297646421288256e+00,-1.101930247276357647e-02
1.110000000000000764e+00,-9.311047456304594183e-03,-5.406662713387387242e+00,-1.120492993059884861e-02
1.120000000000000773e+00,-6.399936133417064021e-02,-5.521944945357732948e+00,-1.125559522252373747e-02
1.130000000000000782e+00,-1.195637545687533720e-01,-5.581829220606956632e+00,-1.120669931140669956e-02
1.140000000000000790e+00,-1.754404468564023656e-01,-5.584478184235522669e+00,-1.104328115475898889e-02
1.150000000000000799e+00,-2.310510620478380961e-01,-5.528809816345003014e+00,-1.076632016221597613e-02
1.160000000000000808e+00,-2.858102468072863944e-01,-5.414506233713802352e+00,-1.037816990345850551e-02
1.170000000000000817e+00,-3.391332447625813873e-01,-5.241996284195431066e+00,-9.882478634473031501e-03
1.180000000000000826e+00,-3.904431731831746188e-01,-5.012414095081195953e+00,-9.284069445201862184e-03
1.190000000000000835e+00,-4.391777812202872777e-01,-4.727537748243490157e+00,-8.588789038231204112e-03
1.200000000000000844e+00,-4.847955187532630439e-01,-4.389713814847342022e+00,-7.803336649990622216e-03
1.210000000000000853e+00,-5.267808075053473926e-01,-4.001774428364933911e+00,-6.935085926002363885e-03
1.220000000000000862e+00,-5.646484747584356034e-01,-3.566953838340326755e+00,-5.991912574613580955e-03
1.230000000000000870e+00,-5.979473779460353633e-01,-3.088810994598470749e+00,-4.982039441220220688e-03
1.240000000000000879e+00,-6.262633095312050147e-01,-2.571163763701671989e+00,-3.913908497845212768e-03
1.250000000000000888e+00,-6.492213210454539363e-01,-2.018039023426172918e+00,-2.796086440587537952e-03
1.260000000000000897e+00,-6.664876396997134744e-01,-1.433641276730272196e+00,-1.637207453928429248e-03
1.270000000000000906e+00,-6.777713688459723329e-01,-8.223407189758306091e-01,-4.459535210519036813e-04
1.280000000000000915e+00,-6.828261643282947935e-01,-1.886799932393072865e-01,7.689303543072610733e-04
1.290000000000000924e+00,-6.814520629051208367e-01,4.626027474261111827e-01,1.998591365805113280e-03
1.300000000000000933e+00,-6.734976075137757423e-01,1.126538342618361721e+00,3.234002272724890124e-03
1.310000000000000941e+00,-6.588623685691084031e-01,1.797883903969805797e+00,4.465882611810246573e-03
1.320000000000000950e+00,-6.374999023785647978e-01,2.471079244218477022e+00,5.684619039864265665e-03
1.330000000000000959e+00,-6.094211191364220515e-01,3.140209759649003729e+00,6.880197256753598639e-03
1.340000000000000968e+00,-5.746979565503066434e-01,3.798983679702429228e+00,8.042158588434275904e-03
1.350000000000000977e+00,-5.334537226609014082e-01,4.443417305177527865e+00,9.321491685123516405e-03
1.360000000000000986e+00,-4.858654484968338294e-01,5.066758933314183366e+00,1.056345072423744806e-02
1.370000000000000995e+00,-4.321809910979682035e-01,5.661609830293546253e+00,1.173617327697431233e-02
1.380000000000001004e+00,-3.727234596303992120e-01,6.220339406595245535e+00,1.282623668520439450e-02
1.390000000000001013e+00,-3.079081713887062977e-01,6.732169737212720051e+00,1.363564749140371707e-02
1.400000000000001021e+00,-2.382397451261938359e-01,7.190049152248904285e+00,1.436698344168756483e-02
1.410000000000001030e+00,-1.642864196948778943e-01,7.588338505447312698e+00,1.507251529769487730e-02
1.420000000000001039e+00,-8.667784207259646156e-02,7.920432361200111515e+00,1.564916208040414980e-02
1.430000000000001048e+00,-6.105781528121814739e-03,8.180545850451077072e+00,1.608805292525307407e-02
1.440000000000001057e+00,7.668521581814197186e-02,8.363937006904180294e+00,1.638225851773833508e-02
1.450000000000001066e+00,1.609092210243303900e-01,8.467091100254892311e+00,1.652709964362013284e-02
1.460000000000001075e+00,2.457518911348957613e-01,8.487848874627161422e+00,1.652036310689733445e-02
1.470000000000001084e+00,3.303843787139971733e-01,8.425465118407178267e+00,1.636238406932698231e-02
1.480000000000001092e+00,4.139774463857675002e-01,8.280591043073201263e+00,1.605599183534444155e-02
1.490000000000001101e+00,4.957150263753695718e-01,8.055182172676419228e+00,1.560633598536391442e-02
1.500000000000001110e+00,5.748065202409360364e-01,7.752340908381099460e+00,1.502058924726333913e-02
1.510000000000001119e+00,6.504972598024262309e-01,7.376109420683186535e+00,1.430756065925043591e-02
1.520000000000001128e+00,7.220767294790065849e-01,6.931232614150294680e+00,1.347725411980963371e-02
1.530000000000001137e+00,7.888843569715625614e-01,6.422912314037478865e+00,1.254041035368979630e-02
1.540000000000001146e+00,8.503128868623766046e-01,5.856572675604531319e+00,1.150806857662799859e-02
1.550000000000001155e+00,9.058095372547756430e-01,5.237653675560773436e+00,1.039117862151280047e-02
1.560000000000001164e+00,9.548752870054613151e-01,4.571445206695045727e+00,9.200286392682827455e-03
1.570000000000001172e+00,9.970627426341773791e-01,3.862969584905812326e+00,7.945306759870826921e-03
1.580000000000001181e+00,1.031973089490455298e+00,3.116915874980950019e+00,6.635389701861727808e-03
1.590000000000001190e+00,1.059252646750976412e+00,2.337625791442607515e+00,5.278878566764148503e-03
1.600000000000001199e+00,1.078589528963017852e+00,1.529128215128673585e+00,3.883354158462676460e-03
1.610000000000001208e+00,1.089710877407435330e+00,6.952175367904394054e-01,2.455754981047358031e-03
1.620000000000001217e+00,1.092381070421930112e+00,-1.604301184712531025e-01,1.002562044791905889e-03
1.630000000000001226e+00,1.086401258220239585e+00,-1.034109526197117379e+00,-4.699643625478223995e-04
1.640000000000001235e+00,1.071610496607857455e+00,-1.921915364240490032e+00,-1.955509194674909246e-03
1.650000000000001243e+00,1.047888674013387478e+00,-2.819556135171418010e+00,-3.447402582436060337e-03
1.660000000000001252e+00,1.015161333402212485e+00,-3.722163116885733203e+00,-4.938310828679015607e-03
1.670000000000001261e+00,9.734063792368549128e-01,-4.624106604871232484e+00,-6.419936507373048308e-03
1.680000000000001270e+00,9.226625239447172611e-01,-5.518834377968344640e+00,-7.882748978425701755e-03
1.690000000000001279e+00,8.630393836188365864e-01,-6.398706449899436599e+00,-9.313135878950083019e-03
1.700000000000001288e+00,7.947282719932912132e-01,-7.255023722100836459e+00,-1.070129587405659055e-02
1.710000000000001297e+00,7.180129972522689696e-01,-8.078002025418657084e+00,-1.203307607432581132e-02
1.720000000000001306e+00,6.332801938482568449e-01,-8.856893588542117612e+00,-1.329286719627644116e-02
1.730000000000001315e+00,5.410318640598218431e-01,-9.579426360159853715e+00,-1.441578977771038744e-02
1.740000000000001323e+00,4.419753459812770791e-01,-1.021690683367212493e+01,-1.441578977771038744e-02
1.750000000000001332e+00,3.372632367372644380e-01,-1.070915021570644576e+01,-1.135380340698571161e-02
1.760000000000001341e+00,2.280802026888557599e-01,-1.110989053712322949e+01,-1.198364987757622076e-02
1.770000000000001350e+00,1.153830974923693298e-01,-1.141106532730492340e+01,-1.251062684983162906e-02
1.780000000000001359e+00,2.003919409321874845e-04,-1.160648359162182075e+01,-1.292499113390793361e-02
1.790000000000001368e+00,-1.163886268352191666e-01,-1.169222116225973451e+01,-1.321918949222253455e-02
1.800000000000001377e+00,-2.332779152637366737e-01,-1.166687056297535285e+01,-1.338829019431514444e-02
1.810000000000001386e+00,-3.493603555403124727e-01,-1.153161245015453851e+01,-1.343023186441818194e-02
1.820000000000001394e+00,-4.635532039687620953e-01,-1.129009836288954993e+01,-1.334586005084588585e-02
1.830000000000001403e+00,-5.748214711239427732e-01,-1.094815926811868856e+01,-1.313875042416614083e-02
1.840000000000001412e+00,-6.821976581419978425e-01,-1.051337618681416863e+01,-1.281484553467977100e-02
1.850000000000001421e+00,-7.847967170576075624e-01,-9.994563861935745308e+00,-1.238195398980396558e-02
1.860000000000001430e+00,-8.818256476379678910e-01,-9.401223804837899323e+00,-1.184917293934777474e-02
1.870000000000001439e+00,-9.725876947857050592e-01,-8.743019347687503995e+00,-1.122629582258611626e-02
1.880000000000001448e+00,-1.056481588138019179e+00,-8.029314725748044168e+00,-1.052325906021047038e-02
1.890000000000001457e+00,-1.132996615833152365e+00,-7.268805950379226388e+00,-9.749667167776069135e-03
1.900000000000001465e+00,-1.201704527617487139e+00,-6.469256562418872925e+00,-8.914419527123056824e-03
1.910000000000001474e+00,-1.262249327802210885e+00,-5.637338774763620108e+00,-8.025447066791277159e-03
1.920000000000001483e+00,-1.314335974908624527e+00,-4.778571422356871601e+00,-7.089555429795340799e-03
1.930000000000001492e+00,-1.357718889570292076e+00,-3.897340880809067709e+00,-6.112363602239151775e-03
1.940000000000001501e+00,-1.392191022054030558e+00,-2.996989259176898290e+00,-5.098323189250141690e-03
1.950000000000001510e+00,-1.417574075556414570e+00,-2.079954862296699680e+00,-4.050802730913649966e-03
1.960000000000001519e+00,-1.433710341791818221e+00,-1.147952177224884851e+00,-2.972222629613386225e-03
1.970000000000001528e+00,-1.440456492382643061e+00,-2.021815676409063345e-01,-1.864228441129152846e-03
